%--------------------------------% 
%      BLADE MASS DEFINITION     % 
%--------------------------------% 

% Distance from root [-]     Centre of Mass [% chord]     Mass/unit length [kg/m]      Mom. Inertia/unit length [kgm] 



0.0000     50.000000       754.183394      612.328409       
0.0111     49.960992       614.884531      487.612953       
0.0222     49.921913       473.902870      362.672784       
0.0333     49.360771       333.481198      238.182041       
0.0444     49.406562       306.313604      230.326055       
0.0556     48.875564       292.708274      236.393548       
0.0667     47.864666       279.172912      242.455585       
0.0778     46.819624       263.459416      247.976131       
0.0889     45.990305       247.196449      253.355659       
0.1000     45.368100       230.938942      258.735187       
0.1111     44.612587       226.456703      269.372257       
0.1222     43.894932       227.274460      282.375564       
0.1333     43.318117       228.029387      295.378871       
0.1444     42.613119       226.080019      296.496356       
0.1556     41.898474       222.215104      289.205477       
0.1667     41.386959       218.287742      281.921155       
0.1778     40.933805       213.941674      270.834535       
0.1889     40.540083       209.154895      255.678073       
0.1950     40.445146       206.506212      247.342701       
0.2000     40.375472       204.345920      240.521611       
0.2111     40.358611       201.250959      228.914409       
0.2222     40.396229       200.957038      223.116618       
0.2333     40.460332       200.637580      217.318827       
0.2444     40.524549       200.072335      210.704058       
0.2556     40.546383       198.891004      201.932830       
0.2667     40.583715       197.703528      193.169490       
0.2778     40.625673       196.461974      184.376635       
0.2889     40.639942       195.003429      175.442324       
0.3000     40.657689       193.541902      166.508012       
0.3111     40.676999       192.077348      157.633879       
0.3222     40.684469       190.598457      149.573349       
0.3333     40.693532       189.118087      141.512819       
0.3444     40.703883       187.636540      133.452289       
0.3556     40.698146       185.928607      126.106614       
0.3667     40.691883       184.224667      118.793600       
0.3778     40.685118       182.520486      111.480585       
0.3889     40.669360       180.203432      104.614659       
0.4000     40.650534       177.788840      97.820155        
0.4111     40.629284       175.387111      91.025651        
0.4222     40.601111       172.419668      84.769009        
0.4333     40.567772       169.272749      78.683620        
0.4444     40.529865       166.126959      72.598231        
0.4556     40.495857       163.136671      67.375552        
0.4667     40.461431       160.247683      62.614351        
0.4778     40.420702       157.360863      57.853149        
0.4889     40.389178       154.654063      53.714093        
0.5000     40.363931       152.094263      50.080212        
0.5111     40.331026       149.537717      46.446332        
0.5222     40.306963       147.104881      43.205953        
0.5333     40.296037       144.823931      40.450187        
0.5444     40.276099       142.547302      37.694421        
0.5556     40.256717       140.375147      35.191509        
0.5667     40.247655       138.423290      33.175281        
0.5778     40.227544       136.476907      31.159054        
0.5889     40.205567       134.375282      29.229719        
0.6000     40.203746       131.773927      27.573290        
0.6111     40.189045       129.168929      25.916861        
0.6222     40.167572       126.512752      24.307664        
0.6333     40.172936       123.501009      22.994135        
0.6444     40.167055       120.495164      21.680605        
0.6556     40.151277       117.499528      20.378601        
0.6667     40.154185       114.812702      19.429310        
0.6778     40.147682       112.130651      18.480020        
0.6889     40.132361       109.453007      17.530729        
0.7000     40.133166       106.984977      16.782214        
0.7111     40.128430       104.535846      16.048550        
0.7222     40.117035       102.089997      15.314886        
0.7333     40.117956       99.738531       14.701818        
0.7444     40.100835       97.408683       14.113913        
0.7556     40.046783       95.078084       13.525478        
0.7667     39.979892       92.838840       13.012181        
0.7778     39.888924       90.633879       12.527253        
0.7889     39.767938       88.429903       12.042325        
0.8000     39.668099       84.799080       11.393740        
0.8111     39.572970       80.329674       10.645168        
0.8222     39.454938       75.859927       9.896596         
0.8333     39.375540       71.335740       9.267491         
0.8444     39.333712       66.760228       8.749999         
0.8556     39.280004       62.179438       8.232041         
0.8667     39.217592       57.569336       7.647002         
0.8778     39.163520       52.910632       6.966405         
0.8889     39.164463       48.223784       6.285808         
0.9000     39.183879       43.421782       5.535663         
0.9111     39.170345       38.399557       4.630990         
0.9222     39.331326       33.320205       3.726317         
0.9333     39.660528       28.135879       2.850988         
0.9444     39.982972       22.729139       2.088332         
0.9556     40.867709       17.191853       1.324990         
0.9667     42.385420       11.810984       0.620040         
0.9700     41.871045       10.756268       0.558144         
0.9778     40.660818       8.233072        0.413535         
0.9889     38.643922       4.524895        0.207030         
1.0000     47.033603       0.695405        0.000525         
